 
PGA:,  0.05 g
PGV:,  2.68 cm/s
PGD:,  1.55 cm
Arias Intensity:,   1.77 cm/s
Significant duration:,  16.89 s
 
 
Damping ratio for spectra:  0.05

 
period [s]	SD. [cm]	PSV [cm/s]	PSA [g]
0.0010	, 0.000	, 0.007	, 0.048
0.1010	, 0.020	, 1.258	, 0.080
0.2010	, 0.081	, 2.519	, 0.080
0.3010	, 0.118	, 2.474	, 0.053
0.4010	, 0.186	, 2.908	, 0.046
0.5010	, 0.253	, 3.173	, 0.041
0.6010	, 0.324	, 3.386	, 0.036
0.7010	, 0.307	, 2.752	, 0.025
0.8010	, 0.287	, 2.255	, 0.018
0.9010	, 0.612	, 4.270	, 0.030
1.0010	, 0.934	, 5.863	, 0.038
1.1010	, 1.074	, 6.132	, 0.036
1.2010	, 1.016	, 5.318	, 0.028
1.3010	, 0.871	, 4.208	, 0.021
1.4010	, 0.798	, 3.577	, 0.016
1.5010	, 0.846	, 3.543	, 0.015
1.6010	, 0.889	, 3.489	, 0.014
1.7010	, 1.054	, 3.892	, 0.015
1.8010	, 1.170	, 4.082	, 0.015
1.9010	, 1.141	, 3.773	, 0.013
2.0010	, 1.266	, 3.974	, 0.013
2.1010	, 1.388	, 4.151	, 0.013
2.2010	, 1.599	, 4.564	, 0.013
2.3010	, 1.847	, 5.043	, 0.014
2.4010	, 2.333	, 6.106	, 0.016
2.5010	, 2.827	, 7.103	, 0.018
2.6010	, 3.299	, 7.969	, 0.020
2.7010	, 3.695	, 8.596	, 0.020
2.8010	, 4.007	, 8.990	, 0.021
2.9010	, 4.239	, 9.181	, 0.020
3.0010	, 4.371	, 9.151	, 0.020
3.1010	, 4.438	, 8.992	, 0.019
3.2010	, 4.440	, 8.716	, 0.017
3.3010	, 4.473	, 8.514	, 0.017
3.4010	, 4.555	, 8.415	, 0.016
3.5010	, 4.598	, 8.251	, 0.015
3.6010	, 4.604	, 8.034	, 0.014
3.7010	, 4.585	, 7.784	, 0.013
3.8010	, 4.542	, 7.508	, 0.013
3.9010	, 4.479	, 7.215	, 0.012
4.0010	, 4.395	, 6.902	, 0.011
4.1010	, 4.282	, 6.561	, 0.010
4.2010	, 4.147	, 6.203	, 0.009
4.3010	, 3.993	, 5.833	, 0.009
4.4010	, 3.833	, 5.472	, 0.008
4.5010	, 3.664	, 5.115	, 0.007
4.6010	, 3.492	, 4.769	, 0.007
4.7010	, 3.347	, 4.473	, 0.006
4.8010	, 3.333	, 4.362	, 0.006
4.9010	, 3.315	, 4.249	, 0.006
5.0010	, 3.293	, 4.137	, 0.005
5.1010	, 3.270	, 4.028	, 0.005
5.2010	, 3.242	, 3.916	, 0.005
5.3010	, 3.210	, 3.804	, 0.005
5.4010	, 3.174	, 3.692	, 0.004
5.5010	, 3.136	, 3.581	, 0.004
5.6010	, 3.096	, 3.473	, 0.004
5.7010	, 3.056	, 3.368	, 0.004
5.8010	, 3.015	, 3.266	, 0.004
5.9010	, 2.974	, 3.167	, 0.003
6.0010	, 2.932	, 3.070	, 0.003
6.1010	, 2.891	, 2.977	, 0.003
6.2010	, 2.849	, 2.886	, 0.003
6.3010	, 2.807	, 2.799	, 0.003
6.4010	, 2.766	, 2.715	, 0.003
6.5010	, 2.726	, 2.634	, 0.003
6.6010	, 2.686	, 2.556	, 0.002
6.7010	, 2.647	, 2.482	, 0.002
6.8010	, 2.608	, 2.410	, 0.002
6.9010	, 2.571	, 2.340	, 0.002
7.0010	, 2.534	, 2.274	, 0.002
7.1010	, 2.498	, 2.210	, 0.002
7.2010	, 2.463	, 2.149	, 0.002
7.3010	, 2.429	, 2.090	, 0.002
7.4010	, 2.396	, 2.034	, 0.002
7.5010	, 2.363	, 1.980	, 0.002
7.6010	, 2.332	, 1.928	, 0.002
7.7010	, 2.302	, 1.878	, 0.002
7.8010	, 2.272	, 1.830	, 0.002
7.9010	, 2.244	, 1.784	, 0.001
8.0010	, 2.216	, 1.740	, 0.001
8.1010	, 2.189	, 1.698	, 0.001
8.2010	, 2.164	, 1.658	, 0.001
8.3010	, 2.139	, 1.619	, 0.001
8.4010	, 2.115	, 1.582	, 0.001
8.5010	, 2.092	, 1.546	, 0.001
8.6010	, 2.069	, 1.512	, 0.001
8.7010	, 2.048	, 1.479	, 0.001
8.8010	, 2.027	, 1.447	, 0.001
8.9010	, 2.007	, 1.417	, 0.001
9.0010	, 1.988	, 1.387	, 0.001
9.1010	, 1.969	, 1.359	, 0.001
9.2010	, 1.951	, 1.332	, 0.001
9.3010	, 1.934	, 1.306	, 0.001
9.4010	, 1.924	, 1.286	, 0.001
9.5010	, 1.919	, 1.269	, 0.001
9.6010	, 1.915	, 1.253	, 0.001
9.7010	, 1.910	, 1.237	, 0.001
9.8010	, 1.906	, 1.222	, 0.001
9.9010	, 1.901	, 1.207	, 0.001
 
acceleration, velocity, displacement and normalized Arias intensity time histories:
 
time [s]	accel. [g]	vel. [cm/s]	displ. [cm]	AI
0.000	0.0002364	0.0000000	0.0000000	0.0000000
0.005	0.0002897	0.0012903	0.0000032	0.0000003
0.010	0.0002908	0.0027139	0.0000132	0.0000007
0.015	0.0002148	0.0039539	0.0000299	0.0000010
0.020	0.0000729	0.0046594	0.0000514	0.0000011
0.025	-0.0000950	0.0046051	0.0000746	0.0000011
0.030	-0.0002321	0.0038029	0.0000956	0.0000012
0.035	-0.0002826	0.0025405	0.0001115	0.0000015
0.040	-0.0002284	0.0012872	0.0001210	0.0000018
0.045	-0.0000919	0.0005015	0.0001255	0.0000019
0.050	0.0000898	0.0004965	0.0001280	0.0000020
0.055	0.0002625	0.0013606	0.0001327	0.0000021
0.060	0.0003918	0.0029653	0.0001435	0.0000026
0.065	0.0004506	0.0050314	0.0001635	0.0000034
0.070	0.0004281	0.0071864	0.0001940	0.0000042
0.075	0.0003488	0.0090917	0.0002347	0.0000049
0.080	0.0002541	0.0105705	0.0002839	0.0000053
0.085	0.0001686	0.0116072	0.0003393	0.0000055
0.090	0.0000834	0.0122252	0.0003989	0.0000056
0.095	-0.0000394	0.0123331	0.0004603	0.0000056
0.100	-0.0002260	0.0116822	0.0005203	0.0000057
0.105	-0.0004364	0.0100576	0.0005747	0.0000062
0.110	-0.0005597	0.0076147	0.0006188	0.0000073
0.115	-0.0004662	0.0050988	0.0006506	0.0000085
0.120	-0.0000840	0.0037494	0.0006728	0.0000090
0.125	0.0005108	0.0047961	0.0006941	0.0000096
0.130	0.0011072	0.0087642	0.0007280	0.0000128
0.135	0.0014370	0.0150038	0.0007874	0.0000199
0.140	0.0012628	0.0216250	0.0008790	0.0000279
0.145	0.0004964	0.0259395	0.0009979	0.0000319
0.150	-0.0006300	0.0256119	0.0011268	0.0000333
0.155	-0.0017495	0.0197761	0.0012403	0.0000408
0.160	-0.0023768	0.0096564	0.0013139	0.0000597
0.165	-0.0022801	-0.0017646	0.0013336	0.0000833
0.170	-0.0014166	-0.0108309	0.0013021	0.0000990
0.175	0.0000053	-0.0142922	0.0012393	0.0001033
0.180	0.0014520	-0.0107180	0.0011768	0.0001079
0.185	0.0025215	-0.0009730	0.0011475	0.0001263
0.190	0.0029091	0.0123455	0.0011760	0.0001585
0.195	0.0024687	0.0255346	0.0012707	0.0001901
0.200	0.0013068	0.0347941	0.0014215	0.0002071
0.205	-0.0003834	0.0370589	0.0016011	0.0002111
0.210	-0.0022088	0.0307015	0.0017705	0.0002220
0.215	-0.0035670	0.0165363	0.0018886	0.0002603
0.220	-0.0039479	-0.0018940	0.0019252	0.0003218
0.225	-0.0032096	-0.0194478	0.0018719	0.0003780
0.230	-0.0015103	-0.0310235	0.0017457	0.0004053
0.235	0.0007517	-0.0328842	0.0015859	0.0004115
0.240	0.0030438	-0.0235757	0.0014448	0.0004329
0.245	0.0046289	-0.0047583	0.0013739	0.0004996
0.250	0.0049924	0.0188379	0.0014091	0.0006003
0.255	0.0039560	0.0407838	0.0015582	0.0006884
0.260	0.0016823	0.0546116	0.0017967	0.0007286
0.265	-0.0011079	0.0560203	0.0020733	0.0007374
0.270	-0.0034526	0.0448357	0.0023254	0.0007660
0.275	-0.0047098	0.0248174	0.0024995	0.0008400
0.280	-0.0045834	0.0020257	0.0025666	0.0009339
0.285	-0.0031097	-0.0168416	0.0025296	0.0010005
0.290	-0.0007464	-0.0262987	0.0024217	0.0010228
0.295	0.0017595	-0.0238142	0.0022965	0.0010307
0.300	0.0037911	-0.0102014	0.0022114	0.0010686
0.305	0.0046746	0.0105608	0.0022123	0.0011473
0.310	0.0039394	0.0316868	0.0023179	0.0012285
0.315	0.0019832	0.0462121	0.0025127	0.0012708
0.320	-0.0001944	0.0505992	0.0027547	0.0012794
0.325	-0.0016716	0.0460228	0.0029963	0.0012856
0.330	-0.0021587	0.0366290	0.0032029	0.0013018
0.335	-0.0018128	0.0268888	0.0033617	0.0013190
0.340	-0.0011803	0.0195482	0.0034778	0.0013292
0.345	-0.0007629	0.0147827	0.0035636	0.0013335
0.350	-0.0006917	0.0112153	0.0036286	0.0013358
0.355	-0.0008517	0.0074299	0.0036752	0.0013384
0.360	-0.0008658	0.0032177	0.0037018	0.0013416
0.365	-0.0005045	-0.0001429	0.0037095	0.0013438
0.370	0.0001499	-0.0010126	0.0037066	0.0013444
0.375	0.0009036	0.0015709	0.0037080	0.0013462
0.380	0.0013471	0.0070905	0.0037297	0.0013519
0.385	0.0011651	0.0132515	0.0037805	0.0013588
0.390	0.0000639	0.0162655	0.0038543	0.0013618
0.395	-0.0016530	0.0123681	0.0039259	0.0013677
0.400	-0.0033098	0.0001967	0.0039573	0.0013975
0.405	-0.0042525	-0.0183498	0.0039119	0.0014606
0.410	-0.0039258	-0.0384073	0.0037701	0.0015333
0.415	-0.0023060	-0.0536910	0.0035398	0.0015784
0.420	0.0000459	-0.0592340	0.0032575	0.0015899
0.425	0.0022561	-0.0535883	0.0029754	0.0016010
0.430	0.0037133	-0.0389481	0.0027441	0.0016420
0.435	0.0039854	-0.0200669	0.0025966	0.0017065
0.440	0.0030725	-0.0027572	0.0025395	0.0017615
0.445	0.0016257	0.0087653	0.0025545	0.0017878
0.450	0.0001694	0.0131680	0.0026094	0.0017936
0.455	-0.0010654	0.0109705	0.0026697	0.0017961
0.460	-0.0021277	0.0031394	0.0027050	0.0018084
0.465	-0.0027607	-0.0088492	0.0026907	0.0018348
0.470	-0.0029480	-0.0228496	0.0026115	0.0018702
0.475	-0.0027511	-0.0368267	0.0024623	0.0019056
0.480	-0.0021218	-0.0487776	0.0022483	0.0019318
0.485	-0.0009333	-0.0562703	0.0019856	0.0019435
0.490	0.0007788	-0.0566492	0.0017033	0.0019467
0.495	0.0025050	-0.0485958	0.0014402	0.0019616
0.500	0.0035043	-0.0338579	0.0012341	0.0020019
0.505	0.0032433	-0.0173093	0.0011062	0.0020515
0.510	0.0019962	-0.0044595	0.0010517	0.0020830
0.515	0.0003837	0.0013771	0.0010440	0.0020919
0.520	-0.0010132	-0.0001668	0.0010471	0.0020945
0.525	-0.0017033	-0.0068291	0.0010296	0.0021030
0.530	-0.0013327	-0.0142750	0.0009768	0.0021132
0.535	-0.0000408	-0.0176436	0.0008970	0.0021171
0.540	0.0016562	-0.0136820	0.0008187	0.0021230
0.545	0.0033047	-0.0015153	0.0007807	0.0021527
0.550	0.0043307	0.0172106	0.0008200	0.0022172
0.555	0.0042720	0.0383088	0.0009587	0.0022976
0.560	0.0029271	0.0559645	0.0011944	0.0023558
0.565	0.0008847	0.0653129	0.0014976	0.0023762
0.570	-0.0009821	0.0650740	0.0018236	0.0023800
0.575	-0.0022471	0.0571544	0.0021292	0.0023930
0.580	-0.0027338	0.0449388	0.0023844	0.0024202
0.585	-0.0021789	0.0328906	0.0025790	0.0024468
0.590	-0.0005066	0.0263046	0.0027270	0.0024577
0.595	0.0017745	0.0294142	0.0028663	0.0024651
0.600	0.0037361	0.0429290	0.0030471	0.0025022
0.605	0.0043851	0.0628462	0.0033116	0.0025743
0.610	0.0033052	0.0817065	0.0036729	0.0026398
0.615	0.0010077	0.0922837	0.0041079	0.0026658
0.620	-0.0015504	0.0909526	0.0045660	0.0026732
0.625	-0.0035448	0.0784566	0.0049895	0.0027057
0.630	-0.0043779	0.0590261	0.0053332	0.0027747
0.635	-0.0042136	0.0379554	0.0055757	0.0028549
0.640	-0.0036437	0.0186853	0.0057173	0.0029223
0.645	-0.0031726	0.0019682	0.0057689	0.0029730
0.650	-0.0032445	-0.0137699	0.0057394	0.0030178
0.655	-0.0037285	-0.0308711	0.0056278	0.0030708
0.660	-0.0039730	-0.0497589	0.0054262	0.0031353
0.665	-0.0035746	-0.0682694	0.0051312	0.0031974
0.670	-0.0025086	-0.0831886	0.0047525	0.0032388
0.675	-0.0009291	-0.0916195	0.0043155	0.0032544
0.680	0.0007934	-0.0919521	0.0038566	0.0032576
0.685	0.0020955	-0.0848670	0.0034145	0.0032685
0.690	0.0026869	-0.0731382	0.0030195	0.0032937
0.695	0.0022224	-0.0610981	0.0026839	0.0033202
0.700	0.0007928	-0.0537032	0.0023969	0.0033323
0.705	-0.0012011	-0.0547043	0.0021259	0.0033368
0.710	-0.0030991	-0.0652504	0.0018260	0.0033608
0.715	-0.0039516	-0.0825421	0.0014565	0.0034155
0.720	-0.0030082	-0.0996110	0.0010011	0.0034691
0.725	-0.0000412	-0.1070896	0.0004844	0.0034888
0.730	0.0041661	-0.0969733	-0.0000258	0.0035265
0.735	0.0082126	-0.0666145	-0.0004347	0.0037108
0.740	0.0103490	-0.0210921	-0.0006540	0.0040900
0.745	0.0088901	0.0260917	-0.0006415	0.0044944
0.750	0.0049816	0.0601119	-0.0004260	0.0047200
0.755	0.0006012	0.0738038	-0.0000912	0.0047747
0.760	-0.0032201	0.0673811	0.0002618	0.0047980
0.765	-0.0059376	0.0449219	0.0005425	0.0048972
0.770	-0.0063581	0.0147667	0.0006917	0.0050616
0.775	-0.0044744	-0.0117999	0.0006992	0.0051929
0.780	-0.0011308	-0.0255467	0.0006058	0.0052392
0.785	0.0029518	-0.0210806	0.0004892	0.0052609
0.790	0.0068420	0.0029388	0.0004439	0.0053815
0.795	0.0090920	0.0420171	0.0005563	0.0056628
0.800	0.0089080	0.0861622	0.0008767	0.0060148
0.805	0.0065713	0.1241253	0.0014024	0.0062811
0.810	0.0030490	0.1477192	0.0020820	0.0063951
0.815	-0.0003257	0.1543981	0.0028373	0.0064155
0.820	-0.0028277	0.1466644	0.0035900	0.0064331
0.825	-0.0045621	0.1285409	0.0042780	0.0064957
0.830	-0.0051866	0.1046324	0.0048609	0.0065994
0.835	-0.0045099	0.0808519	0.0053246	0.0067020
0.840	-0.0026731	0.0632357	0.0056849	0.0067617
0.845	-0.0002517	0.0560628	0.0059831	0.0067774
0.850	0.0019213	0.0601577	0.0062737	0.0067855
0.855	0.0032338	0.0728007	0.0066061	0.0068163
0.860	0.0034413	0.0891713	0.0070110	0.0068647
0.865	0.0027820	0.1044338	0.0074950	0.0069073
0.870	0.0013285	0.1145148	0.0080424	0.0069279
0.875	-0.0006940	0.1160710	0.0086188	0.0069328
0.880	-0.0031310	0.1066902	0.0091757	0.0069551
0.885	-0.0054445	0.0856589	0.0096566	0.0070408
0.890	-0.0068446	0.0555199	0.0100096	0.0072070
0.895	-0.0067493	0.0221810	0.0102038	0.0074078
0.900	-0.0048869	-0.0063566	0.0102434	0.0075586
0.905	-0.0018041	-0.0227663	0.0101706	0.0076176
0.910	0.0012936	-0.0240182	0.0100536	0.0076283
0.915	0.0037508	-0.0116467	0.0099644	0.0076625
0.920	0.0053226	0.0106060	0.0099618	0.0077546
0.925	0.0060402	0.0384734	0.0100845	0.0078954
0.930	0.0060721	0.0681788	0.0103512	0.0080548
0.935	0.0048150	0.0948794	0.0107588	0.0081853
0.940	0.0020070	0.1116103	0.0112750	0.0082444
0.945	-0.0015801	0.1126572	0.0118357	0.0082586
0.950	-0.0044475	0.0978743	0.0123620	0.0083070
0.955	-0.0054792	0.0735290	0.0127905	0.0084152
0.960	-0.0043158	0.0495066	0.0130981	0.0085209
0.965	-0.0013671	0.0355693	0.0133108	0.0085654
0.970	0.0020374	0.0372133	0.0134928	0.0085785
0.975	0.0045686	0.0534145	0.0137193	0.0086328
0.980	0.0051545	0.0772604	0.0140460	0.0087359
0.985	0.0032965	0.0979865	0.0144842	0.0088173
0.990	0.0000859	0.1062818	0.0149948	0.0088409
0.995	-0.0028222	0.0995710	0.0155095	0.0088582
1.000	-0.0045742	0.0814312	0.0159620	0.0089210
1.005	-0.0049603	0.0580480	0.0163107	0.0090199
1.010	-0.0043755	0.0351521	0.0165437	0.0091149
1.015	-0.0033211	0.0162764	0.0166722	0.0091805
1.020	-0.0025218	0.0019466	0.0167178	0.0092183
1.025	-0.0021228	-0.0094445	0.0166990	0.0092419
1.030	-0.0015195	-0.0183773	0.0166295	0.0092567
1.035	-0.0002748	-0.0227778	0.0165266	0.0092619
1.040	0.0015305	-0.0196981	0.0164204	0.0092671
1.045	0.0027417	-0.0092205	0.0163481	0.0092885
1.050	0.0027278	0.0041934	0.0163355	0.0093210
1.055	0.0013123	0.0141018	0.0163813	0.0093409
1.060	-0.0012954	0.0141435	0.0164519	0.0093483
1.065	-0.0040561	0.0010189	0.0164898	0.0093877
1.070	-0.0066787	-0.0253082	0.0164291	0.0095204
1.075	-0.0079155	-0.0611004	0.0162131	0.0097534
1.080	-0.0074400	-0.0987599	0.0158134	0.0100098
1.085	-0.0048496	-0.1289001	0.0152443	0.0101812
1.090	-0.0001419	-0.1411416	0.0145692	0.0102323
1.095	0.0064699	-0.1256222	0.0139022	0.0103233
1.100	0.0132425	-0.0772777	0.0133950	0.0107952
1.105	0.0177622	-0.0012389	0.0131987	0.0118617
1.110	0.0176139	0.0855210	0.0134094	0.0132212
1.115	0.0111795	0.1561368	0.0140136	0.0141668
1.120	0.0008580	0.1856587	0.0148680	0.0144399
1.125	-0.0103876	0.1622875	0.0157379	0.0146760
1.130	-0.0192890	0.0895056	0.0163674	0.0157187
1.135	-0.0234614	-0.0153400	0.0165528	0.0177230
1.140	-0.0203808	-0.1228632	0.0162073	0.0198214
1.145	-0.0117334	-0.2016233	0.0153961	0.0210229
1.150	-0.0009979	-0.2328468	0.0143099	0.0213242
1.155	0.0083525	-0.2148097	0.0131908	0.0214779
1.160	0.0142071	-0.1594824	0.0122550	0.0220680
1.165	0.0135263	-0.0914662	0.0116277	0.0229041
1.170	0.0079389	-0.0388228	0.0113019	0.0234385
1.175	-0.0011818	-0.0222511	0.0111493	0.0235785
1.180	-0.0109203	-0.0519315	0.0109638	0.0238406
1.185	-0.0182660	-0.1235111	0.0105252	0.0248246
1.190	-0.0200830	-0.2175620	0.0096725	0.0264258
1.195	-0.0150283	-0.3036726	0.0083694	0.0277927
1.200	-0.0050755	-0.3529774	0.0067278	0.0283394
1.205	0.0067071	-0.3489759	0.0049729	0.0284931
1.210	0.0159126	-0.2935011	0.0033667	0.0291410
1.215	0.0186261	-0.2087952	0.0021110	0.0304448
1.220	0.0139774	-0.1288353	0.0012669	0.0316230
1.225	0.0045071	-0.0835021	0.0007361	0.0320916
1.230	-0.0052163	-0.0852415	0.0003142	0.0321949
1.235	-0.0114622	-0.1261457	-0.0002143	0.0325395
1.240	-0.0115025	-0.1824666	-0.0009858	0.0331124
1.245	-0.0060392	-0.2254877	-0.0020057	0.0334791
1.250	0.0015929	-0.2363922	-0.0031604	0.0335638
1.255	0.0074436	-0.2142302	-0.0042869	0.0336897
1.260	0.0089046	-0.1741363	-0.0052579	0.0339823
1.265	0.0051140	-0.1397555	-0.0060426	0.0342114
1.270	-0.0017541	-0.1315152	-0.0067208	0.0342749
1.275	-0.0079027	-0.1551985	-0.0074375	0.0344173
1.280	-0.0107879	-0.2010372	-0.0083281	0.0348059
1.285	-0.0097739	-0.2514650	-0.0094594	0.0352663
1.290	-0.0056703	-0.2893421	-0.0108114	0.0355437
1.295	0.0004394	-0.3021709	-0.0122902	0.0356139
1.300	0.0063986	-0.2854007	-0.0137591	0.0357033
1.305	0.0093892	-0.2466811	-0.0150893	0.0359838
1.310	0.0074647	-0.2053469	-0.0162194	0.0362964
1.315	0.0012932	-0.1838683	-0.0171924	0.0364211
1.320	-0.0064218	-0.1964464	-0.0181432	0.0365143
1.325	-0.0122000	-0.2421165	-0.0192396	0.0369273
1.330	-0.0141190	-0.3066639	-0.0206116	0.0376838
1.335	-0.0118798	-0.3704258	-0.0223043	0.0384235
1.340	-0.0059529	-0.4141603	-0.0242658	0.0388071
1.345	0.0024915	-0.4226493	-0.0263578	0.0388976
1.350	0.0103332	-0.3911968	-0.0283924	0.0391430
1.355	0.0144799	-0.3303428	-0.0301963	0.0398306
1.360	0.0136536	-0.2613454	-0.0316755	0.0406911
1.365	0.0074647	-0.2095527	-0.0328527	0.0412172
1.370	-0.0024608	-0.1972806	-0.0338698	0.0413514
1.375	-0.0124769	-0.2339153	-0.0349478	0.0417028
1.380	-0.0180047	-0.3086714	-0.0363043	0.0427453
1.385	-0.0167376	-0.3938769	-0.0380606	0.0440583
1.390	-0.0100378	-0.4595436	-0.0401942	0.0448858
1.395	-0.0003898	-0.4851174	-0.0425558	0.0451051
1.400	0.0087955	-0.4645025	-0.0449299	0.0452735
1.405	0.0148011	-0.4066320	-0.0471077	0.0459175
1.410	0.0168577	-0.3289888	-0.0489468	0.0470109
1.415	0.0150390	-0.2507620	-0.0503961	0.0481197
1.420	0.0095588	-0.1904358	-0.0514991	0.0488096
1.425	0.0014783	-0.1633673	-0.0523836	0.0490129
1.430	-0.0076769	-0.1785694	-0.0532385	0.0491457
1.435	-0.0157034	-0.2359096	-0.0542747	0.0498095
1.440	-0.0199198	-0.3232755	-0.0556727	0.0512073
1.445	-0.0172980	-0.4145522	-0.0575172	0.0527195
1.450	-0.0078330	-0.4761859	-0.0597441	0.0535029
1.455	0.0056140	-0.4816281	-0.0621386	0.0537047
1.460	0.0186755	-0.4220582	-0.0643978	0.0545309
1.465	0.0270116	-0.3100105	-0.0662280	0.0568739
1.470	0.0278977	-0.1753453	-0.0674414	0.0601500
1.475	0.0219678	-0.0530500	-0.0680124	0.0628894
1.480	0.0112147	0.0283302	-0.0680742	0.0642111
1.485	-0.0020618	0.0507776	-0.0678764	0.0644936
1.490	-0.0148349	0.0093383	-0.0677261	0.0649810
1.495	-0.0220386	-0.0810940	-0.0679055	0.0665144
1.500	-0.0230897	-0.1917713	-0.0685877	0.0687279
1.505	-0.0182698	-0.2932056	-0.0698001	0.0706114
1.510	-0.0098320	-0.3621254	-0.0714384	0.0715467
1.515	-0.0016608	-0.3903116	-0.0733195	0.0717627
1.520	0.0036384	-0.3854616	-0.0752590	0.0717974
1.525	0.0046272	-0.3651901	-0.0771356	0.0718727
1.530	0.0017728	-0.3494940	-0.0789223	0.0719260
1.535	-0.0024373	-0.3511236	-0.0806738	0.0719458
1.540	-0.0054107	-0.3703708	-0.0824776	0.0720223
1.545	-0.0065918	-0.3998068	-0.0844030	0.0721803
1.550	-0.0066781	-0.4323512	-0.0864834	0.0723716
1.555	-0.0059803	-0.4633958	-0.0887228	0.0725462
1.560	-0.0051208	-0.4906213	-0.0911078	0.0726809
1.565	-0.0032784	-0.5112203	-0.0936124	0.0727612
1.570	-0.0005471	-0.5206023	-0.0961920	0.0727852
1.575	0.0021170	-0.5167521	-0.0987854	0.0727956
1.580	0.0032875	-0.5034977	-0.1013360	0.0728288
1.585	0.0029237	-0.4882647	-0.1038154	0.0728708
1.590	0.0017057	-0.4769111	-0.1062283	0.0728957
1.595	0.0003405	-0.4718927	-0.1086004	0.0729023
1.600	-0.0013968	-0.4744834	-0.1109663	0.0729068
1.605	-0.0034546	-0.4863815	-0.1133685	0.0729370
1.610	-0.0047288	-0.5064512	-0.1158505	0.0730115
1.615	-0.0036643	-0.5270352	-0.1184343	0.0730892
1.620	0.0005050	-0.5347834	-0.1210888	0.0731190
1.625	0.0078812	-0.5142162	-0.1237113	0.0732545
1.630	0.0162036	-0.4551483	-0.1261347	0.0739599
1.635	0.0226364	-0.3598933	-0.1281723	0.0756436
1.640	0.0237623	-0.2461006	-0.1296873	0.0779836
1.645	0.0190801	-0.1410296	-0.1306551	0.0800013
1.650	0.0094842	-0.0709757	-0.1311851	0.0809877
1.655	-0.0019720	-0.0525521	-0.1314940	0.0811915
1.660	-0.0108655	-0.0840361	-0.1318354	0.0814565
1.665	-0.0156909	-0.1491659	-0.1324184	0.0822479
1.670	-0.0144131	-0.2229962	-0.1333488	0.0832342
1.675	-0.0081452	-0.2783205	-0.1346021	0.0838296
1.680	-0.0003966	-0.2992693	-0.1360461	0.0839741
1.685	0.0071049	-0.2828171	-0.1375013	0.0840841
1.690	0.0127529	-0.2341159	-0.1387937	0.0845472
1.695	0.0138474	-0.1688787	-0.1398011	0.0853171
1.700	0.0116669	-0.1063047	-0.1404891	0.0860294
1.705	0.0096830	-0.0539441	-0.1408897	0.0865289
1.710	0.0098448	-0.0060524	-0.1410397	0.0869432
1.715	0.0117319	0.0468644	-0.1409377	0.0874528
1.720	0.0124763	0.1062350	-0.1405549	0.0880900
1.725	0.0096368	0.1604673	-0.1398882	0.0886299
1.730	0.0029202	0.1912632	-0.1390088	0.0888502
1.735	-0.0055070	0.1849189	-0.1380684	0.0889346
1.740	-0.0128545	0.1398872	-0.1372564	0.0893595
